-0.035409998
-0.03297
-0.03297
-0.035409998
-0.040290002
-0.042739999
-0.040290002
-0.03785
-0.03297
-0.03053
-0.02808
-0.03053
-0.03297
-0.035409998
-0.035409998
-0.03297
-0.02808
-0.02564
-0.02564
-0.02564
-0.02564
-0.02564
-0.02564
-0.0232
-0.02076
-0.01832
-0.02076
-0.0232
-0.02808
-0.03053
-0.03053
-0.03053
-0.02808
-0.02808
-0.02808
-0.02808
-0.03053
-0.03053
-0.03053
-0.03053
-0.03053
-0.02808
-0.03053
-0.03297
-0.03297
-0.035409998
-0.03785
-0.03785
-0.03297
-0.02808
-0.02808
-0.03297
-0.035409998
-0.040290002
-0.040290002
-0.03785
-0.035409998
-0.03297
-0.03053
-0.03053
-0.035409998
-0.03785
-0.035409998
-0.03297
-0.02808
-0.0232
-0.02564
-0.02808
-0.03297
-0.035409998
-0.03785
-0.03053
-0.02076
-0.015869999
-0.01343
-0.015869999
-0.015869999
-0.01832
-0.01343
-0.01099
-0.008547
-0.006105
-0.008547
-0.008547
-0.008547
-0.008547
-0.006105
-0.006105
-0.003663
-0.001221
0.001221
-0.001221
-0.001221
-0.001221
-0.001221
0.003663
0.006105
0.01099
0.015869999
0.01832
0.0232
0.02564
0.03053
0.035409998
0.042739999
0.047619998
0.05006
0.052499998
0.052499998
0.054949999
0.054949999
0.062270001
0.067160003
0.076920003
0.079369999
0.079369999
0.079369999
0.081809998
0.081809998
0.081809998
0.081809998
0.079369999
0.072039999
0.059829999
0.047619998
0.035409998
0.0232
0.01343
0.006105
0.003663
-0.003663
-0.01099
-0.015869999
-0.02564
-0.03053
-0.03297
-0.035409998
-0.035409998
-0.03785
-0.040290002
-0.05006
-0.054949999
-0.059829999
-0.062270001
-0.059829999
-0.059829999
-0.059829999
-0.067160003
-0.074479997
-0.079369999
-0.074479997
-0.059829999
-0.040290002
-0.006105
0.035409998
0.091580003
0.164800003
0.25029999
0.343100011
0.428600013
0.484699994
0.487199992
0.440800011
0.365099996
0.272300005
0.177000001
0.086690001
0.003663
-0.067160003
-0.125799999
-0.172199994
-0.203899994
-0.218600005
-0.218600005
-0.206300005
-0.194100007
-0.177000001
-0.159999996
-0.147699997
-0.137999997
-0.125799999
-0.115999997
-0.103799999
-0.091580003
-0.079369999
-0.072039999
-0.067160003
-0.062270001
-0.059829999
-0.054949999
-0.047619998
-0.042739999
-0.03053
-0.02808
-0.02564
-0.02564
-0.02564
-0.02564
-0.0232
-0.02076
-0.02076
-0.01832
-0.01832
-0.0232
-0.02564
-0.02564
-0.02076
-0.01832
-0.01343
-0.008547
-0.006105
-0.006105
-0.008547
-0.01099
-0.008547
-0.008547
-0.003663
-0.003663
-0.001221
0.001221
0.001221
0.001221
0.001221
0.003663
0.006105
0.01099
0.01099
0.01099
0.01099
0.01099
0.01099
0.01343
0.02076
0.02564
0.03053
0.03053
0.02808
0.03053
0.03297
0.040290002
0.04518
0.05006
0.05006
0.05006
0.05006
0.047619998
0.047619998
0.05006
0.054949999
0.054949999
0.054949999
0.052499998
0.052499998
0.054949999
0.057390001
0.067160003
0.072039999
0.081809998
0.084250003
0.086690001
0.086690001
0.089129999
0.091580003
0.09646
0.103799999
0.1087
0.111100003
0.111100003
0.111100003
0.113600001
0.1184
0.125799999
0.133100003
0.135499999
0.135499999
0.133100003
0.133100003
0.130600005
0.135499999
0.140400007
0.145300001
0.147699997
0.150199994
0.147699997
0.145300001
0.145300001
0.145300001
0.147699997
0.150199994
0.152600005
0.150199994
0.145300001
0.140400007
0.133100003
0.128199995
0.123300001
0.1184
0.113600001
0.103799999
0.094020002
0.084250003
0.072039999
0.062270001
0.052499998
0.047619998
0.03785
0.02808
0.01832
0.003663
-0.008547
-0.01832
-0.02564
-0.035409998
-0.040290002
-0.047619998
-0.054949999
-0.062270001
-0.072039999
-0.076920003
-0.079369999
-0.081809998
-0.084250003
-0.089129999
-0.09646
-0.103799999
-0.1087
-0.1087
-0.106200002
-0.101300001
-0.098899998
-0.098899998
-0.101300001
-0.106200002
-0.1087
-0.111100003
-0.111100003
-0.106200002
-0.106200002
-0.103799999
-0.106200002
-0.106200002
-0.106200002
-0.1087
-0.103799999
-0.101300001
-0.098899998
-0.098899998
-0.098899998
-0.101300001
-0.101300001
-0.098899998
-0.09646
-0.091580003
-0.086690001
-0.084250003
-0.084250003
-0.084250003
-0.084250003
-0.081809998
-0.074479997
-0.067160003
-0.064709999
-0.064709999
-0.064709999
-0.067160003
-0.069600001
-0.067160003
-0.062270001
-0.057390001
-0.057390001
-0.057390001
-0.062270001
-0.064709999
-0.064709999
-0.064709999
-0.062270001
-0.057390001
-0.054949999
-0.05006
-0.052499998
-0.054949999
-0.054949999
-0.052499998
-0.05006
-0.05006
-0.047619998
-0.05006
-0.05006
-0.054949999
-0.057390001
-0.057390001
-0.054949999
-0.047619998
-0.047619998
-0.04518
-0.04518
-0.047619998
-0.05006
-0.052499998
-0.05006
-0.047619998
-0.042739999
-0.04518
-0.04518
-0.047619998
-0.05006
-0.05006
-0.05006
-0.047619998
-0.047619998
-0.047619998
-0.052499998
-0.054949999
-0.057390001
-0.062270001
-0.059829999
-0.057390001
-0.057390001
-0.057390001
-0.054949999
-0.057390001
-0.057390001
-0.057390001
-0.054949999
-0.05006
-0.05006
-0.047619998
-0.052499998
-0.054949999
-0.057390001
-0.052499998
-0.052499998
-0.047619998
-0.04518
-0.04518
-0.047619998
-0.052499998
-0.052499998
-0.05006
-0.04518
-0.040290002
-0.035409998
-0.035409998
-0.040290002
-0.04518
-0.05006
-0.05006
-0.047619998
-0.047619998
-0.047619998
-0.047619998
-0.05006
-0.05006
-0.05006
-0.047619998
-0.042739999
-0.040290002
-0.03785
-0.03785
-0.040290002
-0.042739999
-0.042739999
-0.03785
-0.03785
-0.035409998
-0.035409998
-0.035409998
-0.040290002
-0.042739999
-0.042739999
-0.040290002
-0.035409998
-0.035409998
-0.03297
-0.03785
-0.040290002
-0.042739999
-0.04518
-0.04518
-0.04518
-0.042739999
-0.042739999
-0.042739999
-0.042739999
-0.042739999
-0.04518
-0.042739999
-0.040290002
-0.03785
-0.03297
-0.035409998
-0.035409998
-0.040290002
-0.03785
-0.035409998
-0.035409998
-0.03297
-0.035409998
-0.035409998
-0.03785
-0.040290002
-0.04518
-0.04518
-0.04518
-0.04518
-0.040290002
-0.03785
-0.035409998
-0.035409998
-0.035409998
-0.03297
-0.02808
-0.0232
-0.01832
-0.015869999
-0.015869999
-0.01832
-0.02076
-0.02076
-0.02076
-0.015869999
-0.015869999
-0.015869999
-0.02076
-0.02564
-0.02808
-0.02808
-0.0232
-0.015869999
-0.01343
-0.01343
-0.015869999
-0.01832
-0.02076
-0.02076
-0.015869999
-0.01343
-0.01099
-0.01343
-0.015869999
-0.01832
-0.015869999
-0.01099
-0.003663
0.001221
0.006105
0.01099
0.01099
0.01343
0.01832
0.0232
0.03053
0.03785
0.042739999
0.04518
0.04518
0.047619998
0.05006
0.054949999
0.059829999
0.067160003
0.069600001
0.074479997
0.076920003
0.074479997
0.074479997
0.076920003
0.081809998
0.086690001
0.089129999
0.089129999
0.084250003
0.076920003
0.064709999
0.054949999
0.04518
0.03785
0.03053
0.01832
0.008547
0.001221
-0.008547
-0.015869999
-0.0232
-0.02564
-0.03053
-0.03297
-0.03297
-0.035409998
-0.040290002
-0.040290002
-0.040290002
-0.040290002
-0.040290002
-0.040290002
-0.04518
-0.05006
-0.054949999
-0.057390001
-0.057390001
-0.05006
-0.042739999
-0.02808
-0.006105
0.03053
0.081809998
0.150199994
0.240500003
0.340700001
0.435900003
0.509199977
0.533599973
0.511600018
0.448100001
0.362599999
0.269800007
0.177000001
0.086690001
0.001221
-0.069600001
-0.128199995
-0.164800003
-0.181899995
-0.186800003
-0.179499999
-0.172199994
-0.159999996
-0.152600005
-0.140400007
-0.128199995
-0.111100003
-0.094020002
-0.076920003
-0.064709999
-0.054949999
-0.04518
-0.040290002
-0.03053
-0.02564
-0.015869999
-0.01099
-0.008547
-0.003663
-0.006105
-0.006105
-0.006105
0.001221
0.006105
0.01099
0.015869999
0.02076
0.0232
0.0232
0.0232
0.02564
0.02808
0.03053
0.02808
0.02564
0.0232
0.02076
0.01832
0.01832
0.02076
0.02564
0.02808
0.03053
0.03053
0.02808
0.02564
0.02808
0.03053
0.03297
0.035409998
0.035409998
0.03297
0.03053
0.02808
0.02808
0.03053
0.035409998
0.040290002
0.042739999
0.042739999
0.042739999
0.040290002
0.042739999
0.047619998
0.052499998
0.054949999
0.054949999
0.054949999
0.054949999
0.054949999
0.059829999
0.067160003
0.072039999
0.074479997
0.074479997
0.069600001
0.067160003
0.064709999
0.067160003
0.072039999
0.074479997
0.079369999
0.079369999
0.081809998
0.081809998
0.084250003
0.089129999
0.094020002
0.101300001
0.103799999
0.103799999
0.103799999
0.106200002
0.106200002
0.1087
0.113600001
0.120899998
0.123300001
0.128199995
0.128199995
0.130600005
0.133100003
0.135499999
0.140400007
0.145300001
0.150199994
0.150199994
0.150199994
0.150199994
0.152600005
0.155100003
0.155100003
0.157499999
0.159999996
0.162400007
0.162400007
0.159999996
0.155100003
0.152600005
0.150199994
0.150199994
0.147699997
0.140400007
0.130600005
0.120899998
0.1087
0.101300001
0.094020002
0.086690001
0.079369999
0.067160003
0.052499998
0.03785
0.02564
0.015869999
0.006105
-0.001221
-0.006105
-0.015869999
-0.02808
-0.040290002
-0.047619998
-0.057390001
-0.059829999
-0.062270001
-0.064709999
-0.072039999
-0.079369999
-0.086690001
-0.094020002
-0.09646
-0.09646
-0.09646
-0.101300001
-0.101300001
-0.106200002
-0.113600001
-0.113600001
-0.111100003
-0.1087
-0.1087
-0.106200002
-0.1087
-0.113600001
-0.115999997
-0.120899998
-0.1184
-0.1184
-0.113600001
-0.111100003
-0.1087
-0.1087
-0.1087
-0.1087
-0.106200002
-0.101300001
-0.09646
-0.09646
-0.09646
-0.098899998
-0.09646
-0.098899998
-0.09646
-0.091580003
-0.086690001
-0.084250003
-0.081809998
-0.084250003
-0.084250003
-0.084250003
-0.081809998
-0.079369999
-0.076920003
-0.072039999
-0.072039999
-0.072039999
-0.072039999
-0.069600001
-0.064709999
-0.059829999
-0.054949999
-0.052499998
-0.052499998
-0.05006
-0.052499998
-0.052499998
-0.05006
-0.047619998
-0.042739999
-0.042739999
-0.04518
-0.04518
-0.04518
-0.05006
-0.05006
-0.047619998
-0.047619998
-0.047619998
-0.05006
-0.052499998
-0.057390001
-0.062270001
-0.057390001
-0.057390001
-0.054949999
-0.054949999
-0.054949999
-0.057390001
-0.062270001
-0.059829999
-0.059829999
-0.057390001
-0.054949999
-0.052499998
-0.052499998
-0.052499998
-0.054949999
-0.054949999
-0.052499998
-0.052499998
-0.05006
-0.05006
-0.05006
-0.05006
-0.05006
-0.052499998
-0.052499998
-0.052499998
-0.052499998
-0.05006
-0.054949999
-0.054949999
-0.059829999
-0.062270001
-0.062270001
-0.062270001
-0.059829999
-0.059829999
-0.059829999
-0.059829999
-0.062270001
-0.062270001
-0.057390001
-0.052499998
-0.047619998
-0.04518
-0.042739999
-0.042739999
-0.04518
-0.05006
-0.052499998
-0.052499998
-0.05006
-0.047619998
-0.05006
-0.052499998
-0.054949999
-0.057390001
-0.057390001
-0.052499998
-0.047619998
-0.04518
-0.04518
-0.04518
-0.04518
-0.04518
-0.04518
-0.042739999
-0.040290002
-0.03785
-0.03785
-0.040290002
-0.04518
-0.05006
-0.05006
-0.05006
-0.047619998
-0.05006
-0.054949999
-0.059829999
-0.062270001
-0.064709999
-0.064709999
-0.062270001
-0.057390001
-0.054949999
-0.054949999
-0.054949999
-0.057390001
-0.057390001
-0.052499998
-0.05006
-0.04518
-0.04518
-0.04518
-0.05006
-0.052499998
-0.052499998
-0.05006
-0.042739999
-0.042739999
-0.040290002
-0.042739999
-0.04518
-0.047619998
-0.047619998
-0.042739999
-0.03785
-0.035409998
-0.035409998
-0.040290002
-0.040290002
-0.042739999
-0.040290002
-0.040290002
-0.03785
-0.035409998
-0.03297
-0.035409998
-0.03297
-0.035409998
-0.035409998
-0.03297
-0.03053
-0.02564
-0.0232
-0.02076
-0.02076
-0.0232
-0.02564
-0.0232
-0.02076
-0.01832
-0.015869999
-0.01832
-0.02076
-0.0232
-0.02808
-0.02808
-0.02564
-0.02076
-0.02076
-0.01832
-0.01832
-0.02076
-0.02076
-0.02076
-0.015869999
-0.01099
-0.003663
0.003663
0.006105
0.006105
0.008547
0.015869999
0.0232
0.02808
0.035409998
0.03785
0.040290002
0.040290002
0.042739999
0.04518
0.05006
0.057390001
0.064709999
0.067160003
0.069600001
0.074479997
0.074479997
0.076920003
0.081809998
0.086690001
0.089129999
0.091580003
0.089129999
0.084250003
0.079369999
0.074479997
0.067160003
0.059829999
0.05006
0.042739999
0.02808
0.015869999
0.003663
-0.001221
-0.006105
-0.01099
-0.015869999
-0.02564
-0.03297
-0.040290002
-0.04518
-0.04518
-0.04518
-0.04518
-0.047619998
-0.05006
-0.052499998
-0.054949999
-0.057390001
-0.057390001
-0.054949999
-0.052499998
-0.047619998
-0.040290002
-0.0232
0.001221
0.042739999
0.098899998
0.174600005
0.257600009
0.343100011
0.416399986
0.45539999
0.453000009
0.406599998
0.335799992
0.25029999
0.157499999
0.067160003
-0.0232
-0.103799999
-0.162400007
-0.206300005
-0.235699996
-0.243000001
-0.240500003
-0.230800003
-0.218600005
-0.201499999
-0.181899995
-0.162400007
-0.140400007
-0.115999997
-0.094020002
-0.076920003
-0.062270001
-0.052499998
-0.04518
-0.03785
-0.03053
-0.0232
-0.015869999
-0.006105
-0.003663
-0.003663
-0.003663
-0.003663
0.001221
0.006105
0.01099
0.015869999
0.02076
0.02076
0.0232
0.0232
0.02564
0.03297
0.03785
0.042739999
0.040290002
0.03785
0.035409998
0.03297
0.03297
0.035409998
0.040290002
0.042739999
0.047619998
0.04518
0.04518
0.04518
0.047619998
0.052499998
0.057390001
0.062270001
0.062270001
0.059829999
0.054949999
0.05006
0.052499998
0.057390001
0.064709999
0.069600001
0.072039999
0.069600001
0.069600001
0.072039999
0.074479997
0.079369999
0.084250003
0.089129999
0.089129999
0.089129999
0.086690001
0.089129999
0.094020002
0.09646
0.098899998
0.098899998
0.101300001
0.101300001
0.098899998
0.101300001
0.106200002
0.111100003
0.115999997
0.115999997
0.1184
0.115999997
0.115999997
0.115999997
0.120899998
0.123300001
0.130600005
0.130600005
0.133100003
0.133100003
0.135499999
0.137999997
0.142900005
0.147699997
0.152600005
0.157499999
0.157499999
0.157499999
0.157499999
0.159999996
0.164800003
0.169699997
0.174600005
0.177000001
0.179499999
0.181899995
0.179499999
0.181899995
0.181899995
0.186800003
0.186800003
0.186800003
0.184400007
0.179499999
0.177000001
0.174600005
0.172199994
0.169699997
0.167300001
0.162400007
0.155100003
0.145300001
0.135499999
0.123300001
0.111100003
0.103799999
0.09646
0.086690001
0.074479997
0.062270001
0.047619998
0.03785
0.02808
0.01832
0.01099
0.001221
-0.006105
-0.01832
-0.02808
-0.03785
-0.04518
-0.05006
-0.052499998
-0.054949999
-0.059829999
-0.069600001
-0.076920003
-0.081809998
-0.084250003
-0.086690001
-0.086690001
-0.086690001
-0.091580003
-0.098899998
-0.106200002
-0.111100003
-0.1087
-0.111100003
-0.111100003
-0.111100003
-0.115999997
-0.120899998
-0.120899998
-0.1184
-0.115999997
-0.111100003
-0.106200002
-0.106200002
-0.106200002
-0.111100003
-0.113600001
-0.113600001
-0.111100003
-0.106200002
-0.098899998
-0.09646
-0.094020002
-0.094020002
-0.094020002
-0.091580003
-0.086690001
-0.081809998
-0.074479997
-0.072039999
-0.074479997
-0.074479997
-0.074479997
-0.072039999
-0.067160003
-0.062270001
-0.054949999
-0.052499998
-0.05006
-0.05006
-0.047619998
-0.04518
-0.042739999
-0.040290002
-0.040290002
-0.03785
-0.03785
-0.03785
-0.035409998
-0.035409998
-0.03297
-0.03053
-0.02808
-0.03053
-0.03297
-0.03297
-0.035409998
-0.03785
-0.03785
-0.03785
-0.035409998
-0.03297
-0.03297
-0.03297
-0.040290002
-0.040290002
-0.040290002
-0.040290002
-0.03785
-0.03297
-0.03053
-0.035409998
-0.040290002
-0.040290002
-0.040290002
-0.03785
-0.03785
-0.040290002
-0.042739999
-0.04518
-0.047619998
-0.05006
-0.05006
-0.05006
-0.04518
-0.04518
-0.047619998
-0.052499998
-0.054949999
-0.057390001
-0.054949999
-0.052499998
-0.047619998
-0.04518
-0.042739999
-0.047619998
-0.05006
-0.052499998
-0.052499998
-0.05006
-0.05006
-0.05006
-0.054949999
-0.057390001
-0.059829999
-0.062270001
-0.057390001
-0.052499998
-0.047619998
-0.04518
-0.047619998
-0.05006
-0.052499998
-0.054949999
-0.054949999
-0.05006
-0.04518
-0.04518
-0.04518
-0.05006
-0.052499998
-0.054949999
-0.05006
-0.04518
-0.040290002
-0.040290002
-0.03785
-0.040290002
-0.042739999
-0.04518
-0.042739999
-0.040290002
-0.03785
-0.03785
-0.042739999
-0.04518
-0.04518
-0.04518
-0.042739999
-0.040290002
-0.035409998
-0.03297
-0.035409998
-0.035409998
-0.035409998
-0.035409998
-0.035409998
-0.03297
-0.03053
-0.03053
-0.03053
-0.03053
-0.03297
-0.03053
-0.02564
-0.0232
-0.02076
-0.0232
-0.0232
-0.0232
-0.02564
-0.02564
-0.0232
-0.0232
-0.0232
-0.0232
-0.02076
-0.0232
-0.02564
-0.02808
-0.02808
-0.02808
-0.02808
-0.02564
-0.0232
-0.0232
-0.0232
-0.0232
-0.0232
-0.01832
-0.015869999
-0.01343
-0.01099
-0.015869999
-0.015869999
-0.015869999
-0.015869999
-0.01343
-0.008547
-0.006105
-0.01099
-0.01099
-0.015869999
-0.015869999
-0.015869999
-0.01343
-0.008547
-0.008547
-0.01099
-0.01343
-0.015869999
-0.015869999
-0.01343
-0.008547
-0.003663
0.001221
0.001221
0.001221
0.001221
0.001221
0.008547
0.015869999
0.0232
0.03053
0.03297
0.03053
0.03053
0.03297
0.03785
0.04518
0.052499998
0.059829999
0.062270001
0.064709999
0.067160003
0.069600001
0.074479997
0.076920003
0.079369999
0.079369999
0.076920003
0.072039999
0.064709999
0.057390001
0.052499998
0.04518
0.035409998
0.02808
0.02076
0.008547
-0.001221
-0.008547
-0.01343
-0.015869999
-0.02076
-0.0232
-0.02564
-0.03297
-0.03785
-0.042739999
-0.04518
-0.04518
-0.047619998
-0.047619998
-0.05006
-0.05006
-0.052499998
-0.054949999
-0.057390001
-0.057390001
-0.054949999
-0.04518
-0.03297
-0.01099
0.02076
0.067160003
0.130600005
0.213699996
0.306499988
0.394400001
0.460299999
0.479900002
0.45539999
0.391900003
0.311399996
0.223399997
0.135499999
0.05006
-0.02808
-0.091580003
-0.147699997
-0.184400007
-0.201499999
-0.201499999
-0.191699997
-0.181899995
-0.172199994
-0.159999996
-0.147699997
-0.133100003
-0.113600001
-0.09646
-0.081809998
-0.067160003
-0.059829999
-0.057390001
-0.052499998
-0.047619998
-0.042739999
-0.035409998
-0.02808
-0.0232
-0.02076
-0.02076
-0.01832
-0.01832
-0.01343
-0.008547
0.001221
0.003663
0.003663
0.003663
0.001221
0.001221
0.003663
0.01099
0.01832
0.02076
0.01832
0.015869999
0.01343
0.015869999
0.01832
0.0232
0.02808
0.03053
0.02808
0.02564
0.02564
0.02564
0.02808
0.03053
0.03297
0.03297
0.03053
0.03053
0.03053
0.03053
0.03297
0.03785
0.042739999
0.04518
0.04518
0.047619998
0.047619998
0.05006
0.054949999
0.057390001
0.059829999
0.059829999
0.059829999
0.057390001
0.05006
0.05006
0.052499998
0.054949999
0.059829999
0.062270001
0.062270001
0.062270001
0.059829999
0.059829999
0.064709999
0.069600001
0.079369999
0.084250003
0.089129999
0.091580003
0.094020002
0.098899998
0.103799999
0.111100003
0.115999997
0.1184
0.120899998
0.1184
0.1184
0.120899998
0.128199995
0.135499999
0.142900005
0.147699997
0.147699997
0.147699997
0.147699997
0.150199994
0.152600005
0.155100003
0.157499999
0.159999996
0.159999996
0.157499999
0.155100003
0.155100003
0.157499999
0.159999996
0.162400007
0.162400007
0.159999996
0.155100003
0.147699997
0.145300001
0.145300001
0.145300001
0.140400007
0.135499999
0.128199995
0.115999997
0.106200002
0.098899998
0.094020002
0.089129999
0.081809998
0.072039999
0.059829999
0.047619998
0.035409998
0.02076
0.01099
0.001221
-0.01099
-0.01832
-0.02564
-0.03297
-0.04518
-0.05006
-0.057390001
-0.059829999
-0.064709999
-0.069600001
-0.076920003
-0.086690001
-0.094020002
-0.098899998
-0.098899998
-0.09646
-0.094020002
-0.091580003
-0.094020002
-0.101300001
-0.103799999
-0.106200002
-0.1087
-0.106200002
-0.103799999
-0.101300001
-0.098899998
-0.101300001
-0.103799999
-0.103799999
-0.098899998
-0.094020002
-0.091580003
-0.089129999
-0.091580003
-0.091580003
-0.094020002
-0.094020002
-0.089129999
-0.084250003
-0.081809998
-0.079369999
-0.081809998
-0.081809998
-0.079369999
-0.079369999
-0.074479997
-0.072039999
-0.067160003
-0.064709999
-0.064709999
-0.064709999
-0.064709999
-0.064709999
-0.059829999
-0.057390001
-0.054949999
-0.052499998
-0.05006
-0.052499998
-0.052499998
-0.05006
-0.047619998
-0.040290002
-0.040290002
-0.040290002
-0.040290002
-0.03785
-0.035409998
-0.03785
-0.035409998
-0.03297
-0.02564
-0.0232
-0.0232
-0.0232
-0.02564
-0.02808
-0.02808
-0.02564
-0.0232
-0.02076
-0.02076
-0.0232
-0.02564
-0.02564
-0.02564
-0.0232
-0.01832
-0.015869999
-0.015869999
-0.02076
-0.02564
-0.03053
-0.03297
-0.02808
-0.02808
-0.03053
